OOIBase32 Version 2.0.6.5 Data File
++++++++++++++++++++++++++++++++++++
Date: 05-07-2014, 16:35:01
User: Valued Ocean Optics Customer
Spectrometer Serial Number: 
Spectrometer Channel: Master
Integration Time (msec): 100
Spectra Averaged: 10
Boxcar Smoothing: 0
Correct for Electrical Dark: Disabled
Time Normalized: Disabled
Dual-beam Reference: Disabled
Reference Channel: Master
Temperature: Not acquired
Spectrometer Type: S2000
ADC Type: USB2000
Number of Pixels in File: 2048
Graph Title: 
>>>>>Begin Spectral Data<<<<<
355.95	0.000
356.31	165.200
356.67	164.500
357.03	165.100
357.38	166.500
357.74	173.300
358.10	168.700
358.45	169.800
358.81	174.200
359.17	169.800
359.53	169.800
359.88	170.900
360.24	169.600
360.60	172.900
360.95	171.800
361.31	170.100
361.67	170.800
362.03	172.300
362.38	173.500
362.74	171.000
363.10	171.400
363.45	171.200
363.81	170.300
364.17	170.500
364.52	170.000
364.88	179.400
365.24	171.900
365.59	171.100
365.95	170.000
366.31	171.500
366.66	170.800
367.02	170.500
367.38	176.900
367.73	171.500
368.09	171.600
368.45	172.200
368.80	172.800
369.16	171.000
369.51	170.300
369.87	173.600
370.23	173.000
370.58	173.700
370.94	171.600
371.30	172.800
371.65	172.700
372.01	172.500
372.36	173.300
372.72	172.900
373.08	175.200
373.43	178.100
373.79	171.400
374.14	173.600
374.50	171.000
374.85	171.500
375.21	171.700
375.57	171.700
375.92	172.600
376.28	171.900
376.63	175.200
376.99	171.700
377.34	172.100
377.70	171.700
378.06	172.600
378.41	172.100
378.77	172.200
379.12	172.600
379.48	171.600
379.83	171.700
380.19	171.800
380.54	171.900
380.90	172.800
381.25	172.900
381.61	171.700
381.96	171.900
382.32	172.400
382.67	172.300
383.03	171.900
383.38	177.900
383.74	173.400
384.09	170.200
384.45	171.100
384.80	172.000
385.16	171.000
385.51	173.000
385.87	170.600
386.22	170.000
386.58	171.900
386.93	172.100
387.29	170.300
387.64	171.900
388.00	170.400
388.35	170.600
388.70	174.600
389.06	171.800
389.41	171.700
389.77	169.600
390.12	169.200
390.48	171.200
390.83	170.300
391.19	172.400
391.54	172.100
391.89	171.000
392.25	170.400
392.60	169.900
392.96	169.400
393.31	170.900
393.66	169.700
394.02	171.000
394.37	171.000
394.73	169.900
395.08	171.600
395.43	169.600
395.79	170.800
396.14	171.700
396.50	170.600
396.85	169.600
397.20	170.200
397.56	170.400
397.91	171.200
398.26	170.700
398.62	170.200
398.97	170.100
399.32	171.000
399.68	169.500
400.03	170.000
400.38	170.900
400.74	170.500
401.09	169.000
401.44	170.000
401.80	169.300
402.15	171.400
402.50	170.500
402.86	172.300
403.21	168.300
403.56	170.400
403.92	169.900
404.27	168.600
404.62	170.000
404.98	170.500
405.33	170.000
405.68	171.200
406.03	169.900
406.39	171.100
406.74	169.000
407.09	169.700
407.44	171.100
407.80	169.300
408.15	170.600
408.50	176.000
408.86	170.100
409.21	169.700
409.56	170.200
409.91	169.400
410.27	170.500
410.62	171.500
410.97	170.800
411.32	171.500
411.67	171.000
412.03	170.400
412.38	171.900
412.73	170.300
413.08	171.100
413.44	171.000
413.79	171.600
414.14	170.900
414.49	170.600
414.84	171.400
415.20	174.300
415.55	171.500
415.90	171.400
416.25	170.300
416.60	170.700
416.95	170.800
417.31	170.800
417.66	171.100
418.01	170.500
418.36	169.700
418.71	170.200
419.06	172.500
419.42	174.700
419.77	170.900
420.12	170.600
420.47	170.600
420.82	169.500
421.17	171.100
421.52	171.500
421.88	171.700
422.23	170.900
422.58	170.400
422.93	170.500
423.28	172.300
423.63	169.900
423.98	173.700
424.33	172.400
424.69	170.200
425.04	170.400
425.39	171.600
425.74	172.600
426.09	173.500
426.44	171.100
426.79	171.500
427.14	176.200
427.49	172.000
427.84	171.600
428.19	169.000
428.54	170.600
428.89	171.800
429.25	174.400
429.60	171.000
429.95	170.000
430.30	169.900
430.65	171.700
431.00	170.700
431.35	169.900
431.70	171.400
432.05	170.100
432.40	172.300
432.75	169.700
433.10	172.600
433.45	172.100
433.80	171.100
434.15	170.400
434.50	169.800
434.85	171.700
435.20	170.200
435.55	170.400
435.90	171.100
436.25	171.400
436.60	171.500
436.95	171.400
437.30	171.500
437.65	171.100
438.00	171.700
438.35	170.000
438.70	170.100
439.05	171.000
439.40	171.500
439.75	170.000
440.10	172.700
440.44	171.400
440.79	171.600
441.14	172.200
441.49	172.500
441.84	172.600
442.19	170.500
442.54	172.500
442.89	172.600
443.24	170.400
443.59	171.000
443.94	172.200
444.29	170.300
444.64	170.600
444.98	169.400
445.33	170.900
445.68	171.300
446.03	171.300
446.38	170.600
446.73	171.600
447.08	171.100
447.43	170.300
447.78	172.000
448.12	172.600
448.47	170.700
448.82	170.900
449.17	172.600
449.52	169.600
449.87	170.400
450.21	171.700
450.56	171.700
450.91	170.000
451.26	169.700
451.61	171.300
451.96	172.700
452.30	171.100
452.65	171.500
453.00	170.100
453.35	172.300
453.70	171.300
454.05	169.100
454.39	172.800
454.74	171.700
455.09	172.000
455.44	172.000
455.79	170.800
456.13	170.200
456.48	169.900
456.83	170.600
457.18	171.900
457.52	172.000
457.87	172.000
458.22	172.100
458.57	171.000
458.91	170.200
459.26	171.400
459.61	171.500
459.96	170.500
460.30	177.200
460.65	175.800
461.00	172.200
461.35	172.600
461.69	170.600
462.04	171.300
462.39	171.200
462.73	171.300
463.08	170.300
463.43	171.400
463.78	172.500
464.12	171.400
464.47	171.200
464.82	170.400
465.16	173.600
465.51	170.200
465.86	167.600
466.20	171.600
466.55	170.700
466.90	171.600
467.24	170.600
467.59	171.500
467.94	173.200
468.28	169.500
468.63	171.900
468.98	171.800
469.32	171.400
469.67	171.500
470.02	171.400
470.36	169.900
470.71	172.500
471.06	171.600
471.40	170.400
471.75	170.500
472.09	170.800
472.44	170.000
472.79	169.900
473.13	171.700
473.48	169.800
473.82	172.900
474.17	172.300
474.52	171.300
474.86	170.500
475.21	172.900
475.55	171.500
475.90	171.500
476.25	171.300
476.59	171.300
476.94	171.500
477.28	170.100
477.63	170.000
477.97	170.000
478.32	169.400
478.66	172.100
479.01	170.100
479.35	171.400
479.70	170.200
480.05	169.400
480.39	171.000
480.74	171.200
481.08	170.700
481.43	170.400
481.77	171.600
482.12	171.000
482.46	171.100
482.81	171.600
483.15	170.400
483.50	170.400
483.84	170.100
484.19	170.500
484.53	171.000
484.88	170.500
485.22	173.800
485.57	172.800
485.91	170.500
486.25	170.600
486.60	171.800
486.94	171.400
487.29	173.900
487.63	169.600
487.98	169.500
488.32	171.500
488.67	171.400
489.01	170.900
489.36	170.800
489.70	172.200
490.04	171.000
490.39	171.600
490.73	169.600
491.08	172.000
491.42	171.100
491.76	169.800
492.11	170.200
492.45	172.300
492.80	170.200
493.14	170.600
493.48	170.900
493.83	169.600
494.17	171.300
494.52	170.700
494.86	171.900
495.20	170.800
495.55	172.400
495.89	170.300
496.23	170.400
496.58	171.800
496.92	171.700
497.26	171.200
497.61	171.900
497.95	171.100
498.29	170.200
498.64	171.700
498.98	170.300
499.32	172.400
499.67	171.500
500.01	172.600
500.35	171.400
500.70	175.900
501.04	170.600
501.38	173.100
501.73	171.000
502.07	171.100
502.41	170.400
502.75	171.100
503.10	173.700
503.44	170.100
503.78	172.700
504.12	170.200
504.47	171.100
504.81	170.700
505.15	172.100
505.50	170.900
505.84	171.300
506.18	171.300
506.52	170.900
506.87	171.500
507.21	173.000
507.55	170.600
507.89	171.800
508.23	171.600
508.58	174.400
508.92	175.200
509.26	171.900
509.60	172.200
509.94	172.100
510.29	174.700
510.63	173.200
510.97	171.600
511.31	173.100
511.65	171.900
512.00	170.600
512.34	171.500
512.68	171.800
513.02	171.200
513.36	175.200
513.70	170.900
514.05	170.800
514.39	170.700
514.73	172.100
515.07	173.400
515.41	171.500
515.75	171.600
516.10	175.100
516.44	172.900
516.78	170.600
517.12	171.000
517.46	172.300
517.80	175.000
518.14	170.500
518.48	171.400
518.82	171.400
519.17	171.300
519.51	170.700
519.85	170.200
520.19	170.400
520.53	172.500
520.87	171.000
521.21	170.700
521.55	172.000
521.89	170.700
522.23	171.000
522.57	172.100
522.91	171.300
523.25	171.500
523.60	171.500
523.94	172.100
524.28	170.200
524.62	170.400
524.96	175.200
525.30	170.900
525.64	171.500
525.98	170.800
526.32	174.700
526.66	170.800
527.00	170.600
527.34	170.300
527.68	170.300
528.02	171.100
528.36	171.500
528.70	171.000
529.04	171.000
529.38	170.200
529.72	170.300
530.06	170.700
530.40	171.500
530.74	173.200
531.08	170.400
531.42	170.900
531.76	171.600
532.10	170.600
532.43	170.300
532.77	170.900
533.11	171.900
533.45	169.900
533.79	171.700
534.13	169.800
534.47	170.100
534.81	171.900
535.15	171.300
535.49	169.900
535.83	171.500
536.17	170.900
536.51	171.100
536.84	170.400
537.18	171.200
537.52	175.300
537.86	171.900
538.20	170.500
538.54	170.500
538.88	172.900
539.22	177.200
539.56	172.900
539.89	171.100
540.23	170.600
540.57	172.200
540.91	171.200
541.25	170.600
541.59	170.100
541.92	172.100
542.26	170.700
542.60	172.200
542.94	171.900
543.28	171.400
543.62	172.100
543.95	172.600
544.29	171.700
544.63	172.000
544.97	172.100
545.31	171.800
545.64	170.600
545.98	172.100
546.32	171.200
546.66	170.700
547.00	170.300
547.33	172.200
547.67	182.300
548.01	171.000
548.35	172.000
548.68	172.300
549.02	170.800
549.36	171.500
549.70	171.500
550.03	170.700
550.37	171.400
550.71	170.600
551.05	173.300
551.38	171.200
551.72	170.000
552.06	170.900
552.40	170.600
552.73	171.500
553.07	171.100
553.41	172.900
553.74	170.700
554.08	171.800
554.42	170.900
554.75	172.200
555.09	170.900
555.43	171.700
555.77	171.800
556.10	170.000
556.44	171.100
556.78	171.300
557.11	171.200
557.45	172.000
557.78	174.600
558.12	170.600
558.46	171.600
558.79	173.000
559.13	172.800
559.47	171.800
559.80	172.200
560.14	171.200
560.48	170.800
560.81	172.100
561.15	172.100
561.48	171.400
561.82	186.000
562.16	171.800
562.49	171.800
562.83	171.700
563.16	172.800
563.50	170.900
563.84	171.300
564.17	169.800
564.51	171.000
564.84	170.100
565.18	172.900
565.51	172.400
565.85	171.500
566.19	171.600
566.52	169.000
566.86	171.700
567.19	172.200
567.53	171.400
567.86	170.300
568.20	170.500
568.53	173.100
568.87	171.800
569.20	171.300
569.54	171.700
569.87	172.300
570.21	172.400
570.54	172.900
570.88	171.700
571.21	170.800
571.55	173.100
571.88	170.600
572.22	171.900
572.55	170.200
572.89	170.400
573.22	170.800
573.56	176.400
573.89	170.900
574.23	171.700
574.56	172.100
574.89	171.300
575.23	173.700
575.56	171.500
575.90	171.000
576.23	171.000
576.57	171.000
576.90	176.200
577.23	171.300
577.57	171.500
577.90	171.000
578.24	171.800
578.57	173.100
578.91	170.000
579.24	170.800
579.57	174.700
579.91	172.000
580.24	172.400
580.57	169.900
580.91	171.600
581.24	172.300
581.58	170.200
581.91	171.100
582.24	171.400
582.58	170.800
582.91	171.700
583.24	170.600
583.58	173.300
583.91	172.700
584.24	172.600
584.58	172.400
584.91	174.700
585.24	171.800
585.58	172.600
585.91	171.200
586.24	169.200
586.58	172.800
586.91	170.100
587.24	172.300
587.57	171.800
587.91	172.300
588.24	171.600
588.57	172.200
588.91	170.600
589.24	176.400
589.57	171.500
589.90	173.400
590.24	170.700
590.57	170.400
590.90	171.300
591.23	172.600
591.57	171.200
591.90	171.500
592.23	171.700
592.56	171.100
592.90	171.400
593.23	170.600
593.56	170.700
593.89	171.200
594.22	171.700
594.56	171.200
594.89	170.900
595.22	171.200
595.55	170.600
595.88	171.800
596.22	170.500
596.55	171.500
596.88	172.200
597.21	172.800
597.54	171.600
597.87	171.700
598.21	171.600
598.54	172.100
598.87	171.100
599.20	172.400
599.53	174.600
599.86	172.100
600.19	172.300
600.53	170.500
600.86	170.500
601.19	172.900
601.52	171.400
601.85	169.400
602.18	171.100
602.51	170.500
602.84	170.400
603.17	173.400
603.50	173.900
603.84	171.800
604.17	175.300
604.50	171.000
604.83	171.200
605.16	172.300
605.49	171.300
605.82	171.300
606.15	171.300
606.48	171.800
606.81	172.000
607.14	170.100
607.47	173.500
607.80	172.500
608.13	169.400
608.46	171.000
608.79	171.700
609.12	169.400
609.45	171.600
609.78	171.800
610.11	170.500
610.44	170.400
610.77	171.800
611.10	170.500
611.43	170.500
611.76	170.100
612.09	171.200
612.42	177.500
612.75	170.900
613.08	172.400
613.41	169.500
613.74	172.700
614.07	173.700
614.40	170.400
614.73	171.600
615.06	171.500
615.39	171.500
615.72	173.800
616.05	171.200
616.38	171.400
616.71	172.300
617.04	171.100
617.37	173.900
617.69	171.500
618.02	171.500
618.35	172.200
618.68	171.900
619.01	172.800
619.34	171.800
619.67	171.200
620.00	171.900
620.33	173.100
620.65	171.700
620.98	172.900
621.31	172.000
621.64	170.600
621.97	170.700
622.30	174.800
622.63	171.700
622.95	171.500
623.28	172.000
623.61	169.900
623.94	173.600
624.27	171.800
624.60	171.200
624.92	170.800
625.25	172.300
625.58	173.000
625.91	172.300
626.24	172.600
626.56	171.900
626.89	170.800
627.22	172.600
627.55	172.000
627.87	172.200
628.20	170.900
628.53	170.500
628.86	171.700
629.19	171.900
629.51	171.700
629.84	172.000
630.17	173.000
630.50	171.900
630.82	171.900
631.15	170.900
631.48	171.000
631.80	173.000
632.13	171.700
632.46	178.300
632.79	173.800
633.11	173.600
633.44	170.700
633.77	173.900
634.09	172.800
634.42	175.200
634.75	172.800
635.08	171.900
635.40	170.900
635.73	172.200
636.06	172.400
636.38	171.100
636.71	171.400
637.04	171.100
637.36	173.700
637.69	171.400
638.01	171.000
638.34	172.400
638.67	170.500
638.99	171.900
639.32	172.200
639.65	172.300
639.97	172.600
640.30	174.600
640.62	170.800
640.95	171.200
641.28	173.500
641.60	170.600
641.93	172.200
642.25	172.600
642.58	171.600
642.91	170.500
643.23	173.200
643.56	172.200
643.88	169.700
644.21	170.500
644.53	174.700
644.86	172.200
645.18	170.800
645.51	172.800
645.84	171.700
646.16	172.900
646.49	173.000
646.81	171.900
647.14	171.400
647.46	170.000
647.79	171.500
648.11	173.200
648.44	171.800
648.76	174.100
649.09	173.100
649.41	172.200
649.74	173.300
650.06	173.100
650.39	171.300
650.71	169.400
651.04	173.000
651.36	171.800
651.69	171.000
652.01	172.200
652.33	172.400
652.66	173.300
652.98	171.700
653.31	172.700
653.63	172.700
653.96	172.900
654.28	171.200
654.60	170.800
654.93	186.800
655.25	173.500
655.58	173.800
655.90	170.100
656.22	171.100
656.55	172.000
656.87	171.400
657.20	171.900
657.52	171.000
657.84	170.900
658.17	171.500
658.49	172.000
658.82	173.100
659.14	172.600
659.46	169.800
659.79	171.600
660.11	171.900
660.43	170.900
660.76	170.400
661.08	173.200
661.40	172.400
661.73	171.700
662.05	172.600
662.37	171.300
662.70	172.500
663.02	171.800
663.34	171.400
663.66	173.100
663.99	171.800
664.31	171.300
664.63	170.800
664.96	171.600
665.28	172.300
665.60	171.300
665.92	171.200
666.25	172.800
666.57	173.400
666.89	171.300
667.21	171.200
667.54	172.500
667.86	171.300
668.18	172.900
668.50	171.100
668.83	172.100
669.15	171.900
669.47	173.300
669.79	172.100
670.11	172.700
670.44	174.700
670.76	172.200
671.08	172.000
671.40	170.100
671.72	173.000
672.05	170.300
672.37	172.500
672.69	171.800
673.01	171.700
673.33	171.000
673.65	171.500
673.98	173.800
674.30	177.800
674.62	171.800
674.94	171.400
675.26	171.400
675.58	171.300
675.90	171.800
676.22	171.800
676.55	171.800
676.87	173.200
677.19	174.600
677.51	170.600
677.83	172.200
678.15	171.800
678.47	175.100
678.79	171.500
679.11	172.300
679.43	172.300
679.76	172.500
680.08	171.600
680.40	171.000
680.72	171.700
681.04	172.200
681.36	173.000
681.68	173.500
682.00	174.900
682.32	172.400
682.64	173.300
682.96	175.100
683.28	171.800
683.60	172.200
683.92	172.000
684.24	173.800
684.56	175.100
684.88	172.300
685.20	171.200
685.52	171.500
685.84	171.500
686.16	172.400
686.48	171.300
686.80	172.600
687.12	173.400
687.44	171.300
687.76	172.900
688.08	170.900
688.40	172.600
688.72	171.700
689.04	173.200
689.36	172.800
689.68	172.000
689.99	171.700
690.31	172.900
690.63	171.700
690.95	174.000
691.27	171.900
691.59	171.100
691.91	172.800
692.23	170.300
692.55	171.900
692.87	172.300
693.18	172.100
693.50	171.800
693.82	170.700
694.14	172.500
694.46	171.700
694.78	172.100
695.10	173.400
695.41	171.400
695.73	171.000
696.05	172.800
696.37	171.500
696.69	173.100
697.01	172.400
697.32	171.300
697.64	171.200
697.96	171.600
698.28	172.100
698.60	170.500
698.92	174.400
699.23	175.300
699.55	172.900
699.87	177.100
700.19	171.100
700.50	171.700
700.82	172.300
701.14	171.200
701.46	170.400
701.78	171.100
702.09	172.600
702.41	171.200
702.73	173.100
703.04	170.600
703.36	172.900
703.68	172.000
704.00	170.800
704.31	171.600
704.63	171.400
704.95	170.200
705.27	171.700
705.58	172.200
705.90	172.400
706.22	170.800
706.53	171.600
706.85	171.800
707.17	171.200
707.48	172.800
707.80	171.200
708.12	172.000
708.43	172.000
708.75	172.600
709.07	171.900
709.38	171.900
709.70	179.800
710.02	170.800
710.33	172.700
710.65	173.800
710.96	172.200
711.28	171.000
711.60	172.800
711.91	173.300
712.23	172.800
712.54	172.600
712.86	172.000
713.18	174.300
713.49	171.800
713.81	170.300
714.12	172.700
714.44	173.200
714.76	171.800
715.07	173.500
715.39	173.200
715.70	171.600
716.02	172.500
716.33	171.800
716.65	171.500
716.96	172.100
717.28	171.000
717.59	173.200
717.91	172.000
718.22	171.700
718.54	171.200
718.86	172.800
719.17	173.100
719.49	172.200
719.80	173.300
720.11	171.900
720.43	171.500
720.74	173.700
721.06	171.700
721.37	173.100
721.69	172.100
722.00	171.700
722.32	170.600
722.63	171.700
722.95	171.800
723.26	171.000
723.58	171.400
723.89	170.900
724.20	172.900
724.52	171.700
724.83	170.500
725.15	171.600
725.46	176.400
725.77	171.500
726.09	171.100
726.40	171.800
726.72	171.200
727.03	170.300
727.34	171.900
727.66	170.400
727.97	173.100
728.29	172.500
728.60	171.100
728.91	171.500
729.23	172.300
729.54	170.500
729.85	172.100
730.17	172.500
730.48	171.400
730.79	172.200
731.11	171.600
731.42	170.800
731.73	171.200
732.05	170.600
732.36	171.900
732.67	173.900
732.98	172.100
733.30	172.000
733.61	171.900
733.92	171.400
734.24	171.700
734.55	171.400
734.86	172.000
735.17	175.500
735.49	171.800
735.80	172.200
736.11	169.900
736.42	171.800
736.74	171.300
737.05	173.300
737.36	171.000
737.67	172.500
737.98	171.300
738.30	171.600
738.61	171.700
738.92	173.300
739.23	170.900
739.54	171.100
739.86	171.500
740.17	170.800
740.48	171.600
740.79	172.700
741.10	171.300
741.42	172.400
741.73	171.100
742.04	172.700
742.35	170.900
742.66	174.400
742.97	171.100
743.28	172.200
743.60	171.100
743.91	170.900
744.22	172.300
744.53	172.000
744.84	172.700
745.15	172.200
745.46	171.300
745.77	170.600
746.08	171.400
746.40	172.000
746.71	172.100
747.02	172.400
747.33	172.200
747.64	170.500
747.95	171.800
748.26	172.500
748.57	172.500
748.88	173.200
749.19	171.900
749.50	173.900
749.81	172.500
750.12	173.200
750.43	171.400
750.74	173.200
751.05	171.300
751.36	180.600
751.67	171.100
751.98	172.500
752.29	171.200
752.60	174.100
752.91	173.700
753.22	174.200
753.53	172.000
753.84	171.700
754.15	171.800
754.46	172.300
754.77	171.400
755.08	171.800
755.39	175.500
755.70	173.700
756.01	171.700
756.32	172.200
756.63	172.500
756.94	171.400
757.25	172.200
757.56	172.300
757.86	170.800
758.17	172.900
758.48	171.900
758.79	172.400
759.10	172.400
759.41	170.300
759.72	172.200
760.03	171.800
760.34	171.600
760.64	172.800
760.95	178.900
761.26	172.500
761.57	170.700
761.88	170.200
762.19	172.200
762.50	170.900
762.80	171.800
763.11	171.100
763.42	170.900
763.73	171.800
764.04	174.000
764.34	172.100
764.65	171.700
764.96	172.000
765.27	170.600
765.58	172.200
765.88	171.900
766.19	169.500
766.50	172.100
766.81	171.200
767.11	172.900
767.42	171.000
767.73	172.100
768.04	173.000
768.34	171.700
768.65	170.100
768.96	172.800
769.27	172.800
769.57	171.300
769.88	172.100
770.19	174.700
770.50	174.000
770.80	172.200
771.11	174.700
771.42	172.200
771.72	172.200
772.03	171.900
772.34	169.600
772.64	173.100
772.95	171.300
773.26	170.900
773.56	174.800
773.87	172.400
774.18	170.000
774.48	171.300
774.79	172.800
775.10	170.600
775.40	171.000
775.71	172.500
776.01	169.900
776.32	171.300
776.63	170.900
776.93	173.000
777.24	172.700
777.55	174.600
777.85	170.300
778.16	172.800
778.46	174.600
778.77	172.200
779.07	171.300
779.38	171.500
779.69	170.500
779.99	172.100
780.30	172.400
780.60	172.000
780.91	173.600
781.21	173.900
781.52	173.100
781.82	171.000
782.13	171.800
782.43	176.700
782.74	172.700
783.04	170.700
783.35	172.300
783.65	172.600
783.96	171.800
784.26	171.900
784.57	170.600
784.87	170.800
785.18	169.300
785.48	171.500
785.79	171.700
786.09	172.200
786.40	170.600
786.70	170.800
787.01	172.000
787.31	173.500
787.61	171.000
787.92	170.800
788.22	172.700
788.53	172.200
788.83	172.600
789.14	171.000
789.44	173.700
789.74	170.700
790.05	172.700
790.35	171.400
790.65	172.900
790.96	173.000
791.26	173.200
791.57	172.000
791.87	173.000
792.17	172.300
792.48	171.500
792.78	172.900
793.08	173.200
793.39	170.100
793.69	172.300
793.99	171.600
794.30	171.300
794.60	173.400
794.90	171.900
795.21	170.900
795.51	172.400
795.81	172.800
796.12	171.700
796.42	172.200
796.72	173.400
797.02	170.600
797.33	170.800
797.63	172.000
797.93	171.600
798.23	172.700
798.54	174.100
798.84	170.800
799.14	172.200
799.44	172.800
799.75	173.200
800.05	170.100
800.35	171.900
800.65	172.500
800.96	170.600
801.26	172.100
801.56	171.000
801.86	171.700
802.16	171.800
802.46	175.700
802.77	171.400
803.07	170.900
803.37	172.100
803.67	170.800
803.97	171.000
804.28	170.700
804.58	172.900
804.88	172.500
805.18	172.900
805.48	171.200
805.78	171.800
806.08	171.300
806.38	170.400
806.69	170.400
806.99	172.500
807.29	172.200
807.59	171.400
807.89	172.200
808.19	174.300
808.49	172.600
808.79	172.600
809.09	171.200
809.39	171.700
809.69	171.900
810.00	173.400
810.30	173.400
810.60	179.500
810.90	172.800
811.20	172.200
811.50	171.600
811.80	172.400
812.10	171.000
812.40	172.000
812.70	169.700
813.00	172.600
813.30	172.500
813.60	171.200
813.90	170.900
814.20	170.600
814.50	172.300
814.80	172.300
815.10	171.400
815.40	173.800
815.70	174.100
816.00	172.500
816.30	172.600
816.60	170.300
816.89	176.400
817.19	175.200
817.49	172.400
817.79	171.000
818.09	170.900
818.39	173.900
818.69	170.700
818.99	171.500
819.29	171.700
819.59	171.300
819.89	171.400
820.19	170.000
820.48	170.800
820.78	175.100
821.08	173.200
821.38	172.400
821.68	172.300
821.98	171.300
822.28	172.100
822.57	172.200
822.87	173.200
823.17	173.500
823.47	171.600
823.77	172.900
824.07	171.700
824.36	172.500
824.66	169.300
824.96	171.900
825.26	173.400
825.56	170.700
825.85	174.000
826.15	182.100
826.45	172.200
826.75	171.900
827.04	172.100
827.34	177.800
827.64	171.300
827.94	170.700
828.23	173.100
828.53	170.900
828.83	171.400
829.13	170.600
829.42	172.500
829.72	171.700
830.02	172.200
830.32	170.400
830.61	182.200
830.91	170.200
831.21	173.100
831.50	172.500
831.80	171.300
832.10	172.400
832.39	172.600
832.69	171.700
832.99	172.300
833.28	171.800
833.58	173.600
833.88	175.700
834.17	170.900
834.47	172.500
834.77	172.000
835.06	172.900
835.36	171.100
835.65	171.600
835.95	171.500
836.25	172.200
836.54	171.800
836.84	172.700
837.13	173.500
837.43	171.500
837.73	172.900
838.02	171.100
838.32	170.500
838.61	175.300
838.91	172.600
839.20	171.400
839.50	172.000
839.80	174.100
840.09	172.300
840.39	172.800
840.68	172.100
840.98	172.600
841.27	173.500
841.57	175.500
841.86	171.400
842.16	171.200
842.45	171.700
842.75	173.200
843.04	171.800
843.34	171.900
843.63	171.600
843.93	171.400
844.22	171.800
844.52	172.200
844.81	171.400
845.10	172.300
845.40	172.600
845.69	170.500
845.99	173.200
846.28	172.000
846.58	170.800
846.87	172.200
847.16	177.800
847.46	172.100
847.75	170.900
848.05	172.400
848.34	171.200
848.63	171.500
848.93	172.500
849.22	172.900
849.52	172.100
849.81	172.200
850.10	171.300
850.40	171.200
850.69	172.500
850.98	173.400
851.28	172.600
851.57	172.100
851.86	170.800
852.16	175.300
852.45	178.100
852.74	173.100
853.04	177.400
853.33	178.400
853.62	172.000
853.92	172.100
854.21	171.300
854.50	171.800
854.79	175.800
855.09	173.000
855.38	172.100
855.67	173.500
855.96	170.600
856.26	176.400
856.55	173.300
856.84	171.900
857.13	171.200
857.43	170.800
857.72	171.700
858.01	170.100
858.30	178.600
858.59	173.300
858.89	171.500
859.18	173.100
859.47	173.600
859.76	171.800
860.05	172.800
860.35	172.700
860.64	170.300
860.93	171.200
861.22	173.200
861.51	170.700
861.80	171.200
862.10	171.200
862.39	172.000
862.68	172.400
862.97	171.100
863.26	172.900
863.55	171.500
863.84	172.400
864.13	173.400
864.42	171.500
864.72	171.900
865.01	173.100
865.30	172.400
865.59	171.100
865.88	174.300
866.17	173.400
866.46	177.300
866.75	174.100
867.04	171.000
867.33	172.800
867.62	170.200
867.91	172.600
868.20	171.800
868.49	170.500
868.78	177.300
869.07	173.000
869.36	171.900
869.65	170.600
869.94	171.300
870.23	172.700
870.52	171.200
870.81	174.100
871.10	173.100
871.39	171.000
871.68	172.100
871.97	172.300
872.26	171.000
872.55	171.400
872.84	173.800
873.13	173.000
873.42	171.600
873.71	169.600
874.00	169.900
874.29	171.600
874.58	171.200
874.87	172.400
875.15	172.500
875.44	171.100
875.73	172.000
876.02	171.300
876.31	171.800
876.60	175.300
876.89	170.600
877.18	171.100
877.46	170.100
877.75	170.300
878.04	170.900
878.33	172.800
878.62	173.300
878.91	172.900
879.19	170.700
879.48	174.300
879.77	171.300
880.06	172.400
880.35	170.700
880.64	173.200
880.92	172.700
881.21	170.200
881.50	171.100
881.79	170.900
882.07	171.200
882.36	172.800
882.65	172.000
882.94	170.100
883.22	171.400
883.51	173.100
883.80	171.200
884.09	171.700
884.37	171.100
884.66	176.500
884.95	172.100
885.24	171.500
885.52	169.900
885.81	174.100
886.10	171.300
886.38	172.400
886.67	172.300
886.96	170.800
887.24	172.100
887.53	171.900
887.82	175.000
888.10	171.200
888.39	173.100
888.68	170.900
888.96	172.000
889.25	171.100
889.54	170.700
889.82	171.600
890.11	171.900
890.39	170.300
890.68	173.000
890.97	172.200
891.25	173.000
891.54	180.000
891.82	173.200
892.11	172.300
892.40	171.900
892.68	172.700
892.97	172.600
893.25	171.500
893.54	170.900
893.82	171.400
894.11	174.900
894.39	172.400
894.68	171.700
894.97	171.600
895.25	173.200
895.54	171.800
895.82	171.000
896.11	172.700
896.39	171.700
896.68	171.600
896.96	171.400
897.25	170.600
897.53	172.800
897.82	171.900
898.10	170.900
898.38	173.800
898.67	173.300
898.95	172.800
899.24	171.200
899.52	170.400
899.81	174.000
900.09	172.700
900.38	173.300
900.66	172.300
900.94	172.600
901.23	173.300
901.51	172.800
901.80	173.400
902.08	170.500
902.36	173.100
902.65	171.800
902.93	172.800
903.21	172.200
903.50	174.200
903.78	173.600
904.07	172.500
904.35	172.600
904.63	173.400
904.92	172.300
905.20	173.000
905.48	174.200
905.76	173.000
906.05	174.500
906.33	173.600
906.61	173.500
906.90	172.800
907.18	173.100
907.46	172.500
907.75	173.700
908.03	173.300
908.31	172.200
908.59	173.700
908.88	174.100
909.16	171.800
909.44	178.000
909.72	175.100
910.01	172.200
910.29	172.900
910.57	171.700
910.85	171.800
911.13	173.200
911.42	172.200
911.70	173.100
911.98	173.300
912.26	171.500
912.54	173.000
912.83	173.300
913.11	173.200
913.39	171.800
913.67	172.900
913.95	171.700
914.23	173.600
914.52	171.800
914.80	172.500
915.08	172.800
915.36	173.500
915.64	171.200
915.92	172.200
916.20	172.300
916.48	173.000
916.77	172.400
917.05	171.300
917.33	172.800
917.61	171.500
917.89	171.300
918.17	173.600
918.45	173.100
918.73	171.200
919.01	171.900
919.29	170.800
919.57	171.900
919.85	172.100
920.13	171.700
920.41	172.300
920.69	171.700
920.97	171.600
921.25	171.500
921.53	172.300
921.81	169.800
922.09	174.200
922.37	172.100
922.65	172.400
922.93	170.500
923.21	171.500
923.49	171.000
923.77	171.300
924.05	171.400
924.33	171.400
924.61	172.900
924.89	171.000
925.17	172.900
925.45	170.200
925.73	173.000
926.01	171.900
926.29	172.400
926.57	170.500
926.84	170.700
927.12	173.000
927.40	170.000
927.68	173.300
927.96	170.100
928.24	171.600
928.52	170.800
928.80	172.400
929.07	171.900
929.35	170.900
929.63	171.200
929.91	170.800
930.19	171.100
930.47	175.100
930.74	172.900
931.02	170.100
931.30	171.400
931.58	171.600
931.86	171.600
932.13	171.000
932.41	172.200
932.69	173.000
932.97	171.500
933.24	171.100
933.52	171.600
933.80	169.700
934.08	171.600
934.36	172.600
934.63	176.100
934.91	171.400
935.19	171.800
935.46	171.100
935.74	172.700
936.02	172.800
936.30	172.900
936.57	171.900
936.85	173.200
937.13	171.000
937.40	172.000
937.68	172.700
937.96	175.100
938.23	171.700
938.51	172.900
938.79	170.400
939.06	171.400
939.34	171.500
939.62	173.500
939.89	170.900
940.17	173.200
940.44	172.000
940.72	171.500
941.00	172.600
941.27	174.800
941.55	172.200
941.82	170.900
942.10	171.900
942.38	172.200
942.65	171.700
942.93	172.100
943.20	171.200
943.48	170.300
943.75	171.600
944.03	172.700
944.31	170.500
944.58	170.500
944.86	170.800
945.13	173.500
945.41	171.800
945.68	170.700
945.96	172.200
946.23	172.900
946.51	172.200
946.78	170.200
947.06	170.600
947.33	170.900
947.61	170.400
947.88	171.300
948.16	172.500
948.43	173.700
948.70	172.000
948.98	171.100
949.25	171.600
949.53	171.400
949.80	172.200
950.08	171.400
950.35	170.900
950.62	171.900
950.90	172.400
951.17	172.500
951.45	172.200
951.72	170.800
951.99	173.200
952.27	175.400
952.54	171.200
952.81	170.400
953.09	171.300
953.36	172.800
953.63	170.900
953.91	172.100
954.18	173.700
954.45	171.400
954.73	172.000
955.00	171.300
955.27	171.500
955.55	172.500
955.82	171.200
956.09	171.900
956.37	174.000
956.64	171.600
956.91	171.300
957.18	171.400
957.46	171.500
957.73	172.500
958.00	173.600
958.27	172.700
958.55	170.800
958.82	171.800
959.09	171.200
959.36	177.000
959.64	170.400
959.91	175.300
960.18	171.300
960.45	171.600
960.72	171.700
961.00	171.700
961.27	173.600
961.54	170.600
961.81	171.700
962.08	171.200
962.35	172.200
962.63	172.300
962.90	171.000
963.17	171.600
963.44	172.600
963.71	172.600
963.98	171.300
964.25	171.500
964.53	172.800
964.80	171.300
965.07	172.900
965.34	182.100
965.61	170.700
965.88	172.600
966.15	171.800
966.42	173.700
966.69	172.700
966.96	172.200
967.23	172.100
967.50	173.300
967.77	174.600
968.04	173.000
968.31	171.800
968.59	171.600
968.86	174.700
969.13	172.800
969.40	178.000
969.67	171.900
969.94	171.800
970.21	170.900
970.48	172.000
970.75	174.800
971.01	171.900
971.28	171.900
971.55	170.200
971.82	172.700
972.09	172.700
972.36	172.300
972.63	171.900
972.90	172.000
973.17	171.000
973.44	171.700
973.71	171.500
973.98	172.200
974.25	172.900
974.52	169.500
974.78	172.000
975.05	171.100
975.32	172.100
975.59	175.200
975.86	170.800
976.13	169.700
976.40	171.900
976.67	172.200
976.93	170.300
977.20	171.000
977.47	172.400
977.74	172.400
978.01	171.000
978.28	171.800
978.54	170.500
978.81	171.400
979.08	170.500
979.35	171.300
979.61	173.100
979.88	169.400
980.15	172.000
980.42	171.800
980.69	171.800
980.95	172.000
981.22	171.500
981.49	172.500
981.76	173.300
982.02	170.700
982.29	173.700
982.56	172.500
982.82	176.400
983.09	172.400
983.36	171.800
983.63	172.000
983.89	171.300
984.16	172.400
984.43	172.400
984.69	172.500
984.96	174.200
985.23	171.500
985.49	172.100
985.76	172.400
986.03	172.800
986.29	172.300
986.56	169.200
986.82	171.600
987.09	172.100
987.36	171.100
987.62	173.000
987.89	173.100
988.15	171.500
988.42	172.400
988.69	171.800
988.95	170.600
989.22	171.800
989.48	170.800
989.75	173.000
990.01	173.100
990.28	172.200
990.55	172.000
990.81	169.900
991.08	172.500
991.34	172.800
991.61	171.900
991.87	170.400
992.14	173.100
992.40	172.300
992.67	177.300
992.93	170.500
993.20	171.300
993.46	173.500
993.73	171.900
993.99	173.500
994.25	177.900
994.52	172.100
994.78	174.600
995.05	171.500
995.31	170.700
995.58	171.600
995.84	173.800
996.11	172.600
996.37	172.600
996.63	170.900
996.90	171.400
997.16	172.400
997.43	173.100
997.69	171.000
997.95	175.800
998.22	170.400
998.48	172.000
998.74	170.000
999.01	184.600
999.27	171.400
999.53	172.000
999.80	171.000
1000.06	171.300
1000.32	171.900
1000.59	172.200
1000.85	170.400
>>>>>End Spectral Data<<<<<
